TITLE = "0D Field KU"
VARIABLES = N ,"KU"
ZONE DATAPACKING = POINT
    0.200000000000E+001    0.166991032517E-034
    0.520000000000E+002    0.685791045130E-032
    0.102000000000E+003    0.263745396719E-031
    0.152000000000E+003    0.547955354159E-031
    0.202000000000E+003    0.901329456248E-031
    0.252000000000E+003    0.136183826602E-030
    0.302000000000E+003    0.197959607859E-030
    0.352000000000E+003    0.363222767154E-030
    0.402000000000E+003    0.231061625938E-029
    0.452000000000E+003    0.244952939010E-028
    0.502000000000E+003    0.240032601279E-027
    0.552000000000E+003    0.195037893903E-026
    0.602000000000E+003    0.130015752623E-025
    0.652000000000E+003    0.736397397075E-025
    0.702000000000E+003    0.364157373490E-024
    0.752000000000E+003    0.160236772369E-023
    0.802000000000E+003    0.637510821246E-023
    0.852000000000E+003    0.232080651031E-022
    0.902000000000E+003    0.780169335912E-022
    0.952000000000E+003    0.244041539294E-021
    0.100200000000E+004    0.715084283755E-021
    0.105200000000E+004    0.197418262383E-020
    0.110200000000E+004    0.516125203438E-020
    0.115200000000E+004    0.128356285603E-019
    0.120200000000E+004    0.304873207817E-019
    0.125200000000E+004    0.694102673902E-019
    0.130200000000E+004    0.151961160278E-018
    0.135200000000E+004    0.320854379448E-018
    0.140200000000E+004    0.655072074043E-018
    0.145200000000E+004    0.129630242713E-017
    0.150200000000E+004    0.249168974128E-017
    0.155200000000E+004    0.466123256622E-017
    0.160200000000E+004    0.850158105970E-017
    0.165200000000E+004    0.151424422943E-016
    0.170200000000E+004    0.263775240096E-016
    0.175200000000E+004    0.449991504721E-016
    0.180200000000E+004    0.752745890331E-016
    0.185200000000E+004    0.123612976884E-015
    0.190200000000E+004    0.199484739735E-015
    0.195200000000E+004    0.316670757492E-015
    0.200200000000E+004    0.494936456270E-015
    0.205200000000E+004    0.762246608728E-015
    0.210200000000E+004    0.115766005942E-014
    0.215200000000E+004    0.173506990820E-014
    0.220200000000E+004    0.256798391452E-014
    0.225200000000E+004    0.375557197200E-014
    0.230200000000E+004    0.543024243280E-014
    0.235200000000E+004    0.776704656830E-014
    0.240200000000E+004    0.109952505016E-013
    0.245200000000E+004    0.154124560959E-013
    0.250200000000E+004    0.214016964056E-013
    0.255200000000E+004    0.294519768764E-013
    0.260200000000E+004    0.401827802468E-013
    0.265200000000E+004    0.543731005492E-013
    0.270200000000E+004    0.729956192562E-013
    0.275200000000E+004    0.972566841110E-013
    0.280200000000E+004    0.128642797751E-012
    0.285200000000E+004    0.168974368771E-012
    0.290200000000E+004    0.220467521493E-012
    0.295200000000E+004    0.285804802152E-012
    0.300200000000E+004    0.368215657986E-012
    0.305200000000E+004    0.471567601254E-012
    0.310200000000E+004    0.600469002323E-012
    0.315200000000E+004    0.760384483898E-012
    0.320200000000E+004    0.957763912416E-012
    0.325200000000E+004    0.120018600166E-011
    0.330200000000E+004    0.149651755799E-011
    0.335200000000E+004    0.185708940596E-011
    0.340200000000E+004    0.229389003686E-011
    0.345200000000E+004    0.282077802144E-011
    0.350200000000E+004    0.345371422143E-011
    0.355200000000E+004    0.421101482185E-011
    0.360200000000E+004    0.511362618885E-011
    0.365200000000E+004    0.618542253453E-011
    0.370200000000E+004    0.745352734207E-011
    0.375200000000E+004    0.894865947134E-011
    0.380200000000E+004    0.107055048271E-010
    0.385200000000E+004    0.127631144293E-010
    0.390200000000E+004    0.151653296776E-010
    0.395200000000E+004    0.179612355524E-010
    0.400200000000E+004    0.212056424385E-010
    0.405200000000E+004    0.249595972002E-010
    0.410200000000E+004    0.292909240759E-010
    0.415200000000E+004    0.342747958943E-010
    0.420200000000E+004    0.399943360511E-010
    0.425200000000E+004    0.465412516124E-010
    0.430200000000E+004    0.540164978439E-010
    0.435200000000E+004    0.625309743922E-010
    0.440200000000E+004    0.722062532691E-010
    0.445200000000E+004    0.831753387203E-010
    0.450200000000E+004    0.955834589817E-010
    0.455200000000E+004    0.109588889853E-009
    0.460200000000E+004    0.125363809947E-009
    0.465200000000E+004    0.143095187392E-009
    0.470200000000E+004    0.162985697700E-009
    0.475200000000E+004    0.185254672443E-009
    0.480200000000E+004    0.210139078288E-009
    0.485200000000E+004    0.237894525912E-009
    0.490200000000E+004    0.268796308210E-009
    0.495200000000E+004    0.303140467178E-009
    0.500200000000E+004    0.341244888766E-009
    0.505200000000E+004    0.383450424955E-009
    0.510200000000E+004    0.430122042238E-009
    0.515200000000E+004    0.481649995661E-009
    0.520200000000E+004    0.538451027474E-009
    0.525200000000E+004    0.600969589455E-009
    0.530200000000E+004    0.669679087884E-009
    0.535200000000E+004    0.745083150107E-009
    0.540200000000E+004    0.827716911596E-009
    0.545200000000E+004    0.918148322372E-009
    0.550200000000E+004    0.101697947162E-008
    0.555200000000E+004    0.112484792927E-008
    0.560200000000E+004    0.124242810336E-008
    0.565200000000E+004    0.137043261187E-008
    0.570200000000E+004    0.150961366771E-008
    0.575200000000E+004    0.166076447569E-008
    0.580200000000E+004    0.182472064000E-008
    0.585200000000E+004    0.200236158087E-008
    0.590200000000E+004    0.219461195917E-008
    0.595200000000E+004    0.240244310747E-008
    0.600200000000E+004    0.262687446621E-008
    0.605200000000E+004    0.286897502368E-008
    0.610200000000E+004    0.312986475829E-008
    0.615200000000E+004    0.341071608191E-008
    0.620200000000E+004    0.371275528285E-008
    0.625200000000E+004    0.403726396708E-008
    0.630200000000E+004    0.438558049641E-008
    0.635200000000E+004    0.475910142225E-008
    0.640200000000E+004    0.515928291365E-008
    0.645200000000E+004    0.558764217834E-008
    0.650200000000E+004    0.604575887537E-008
    0.655200000000E+004    0.653527651825E-008
    0.660200000000E+004    0.705790386717E-008
    0.665200000000E+004    0.761541630917E-008
    0.670200000000E+004    0.820965722502E-008
    0.675200000000E+004    0.884253934157E-008
    0.680200000000E+004    0.951604606845E-008
    0.685200000000E+004    0.102322328180E-007
    0.690200000000E+004    0.109932283071E-007
    0.695200000000E+004    0.118012358402E-007
    0.700200000000E+004    0.126585345718E-007
    0.705200000000E+004    0.135674807479E-007
    0.710200000000E+004    0.145305089255E-007
    0.715200000000E+004    0.155501331684E-007
    0.720200000000E+004    0.166289482185E-007
    0.725200000000E+004    0.177696306429E-007
    0.730200000000E+004    0.189749399538E-007
    0.735200000000E+004    0.202477197019E-007
    0.740200000000E+004    0.215908985417E-007
    0.745200000000E+004    0.230074912684E-007
    0.750200000000E+004    0.245005998252E-007
    0.755200000000E+004    0.260734142799E-007
    0.760200000000E+004    0.277292137714E-007
    0.765200000000E+004    0.294713674241E-007
    0.770200000000E+004    0.313033352300E-007
    0.775200000000E+004    0.332286688985E-007
    0.780200000000E+004    0.352510126721E-007
    0.785200000000E+004    0.373741041090E-007
    0.790200000000E+004    0.396017748308E-007
    0.795200000000E+004    0.419379512358E-007
    0.800200000000E+004    0.443866551766E-007
    0.805200000000E+004    0.469520046024E-007
    0.810200000000E+004    0.496382141655E-007
    0.815200000000E+004    0.524495957907E-007
    0.820200000000E+004    0.553905592091E-007
    0.825200000000E+004    0.584656124540E-007
    0.830200000000E+004    0.616793623202E-007
    0.835200000000E+004    0.650365147853E-007
    0.840200000000E+004    0.685418753933E-007
    0.845200000000E+004    0.722003496007E-007
    0.850200000000E+004    0.760169430837E-007
    0.855200000000E+004    0.799967620072E-007
    0.860200000000E+004    0.841450132554E-007
    0.865200000000E+004    0.884670046232E-007
    0.870200000000E+004    0.929681449692E-007
    0.875200000000E+004    0.976539443290E-007
    0.880200000000E+004    0.102530013990E-006
    0.885200000000E+004    0.107602066527E-006
    0.890200000000E+004    0.112875915796E-006
    0.895200000000E+004    0.118357476897E-006
    0.900200000000E+004    0.124052766083E-006
    0.905200000000E+004    0.129967900647E-006
    0.910200000000E+004    0.136109098757E-006
    0.915200000000E+004    0.142482679255E-006
    0.920200000000E+004    0.149095061425E-006
    0.925200000000E+004    0.155952764711E-006
    0.930200000000E+004    0.163062408404E-006
    0.935200000000E+004    0.170430711288E-006
    0.940200000000E+004    0.178064491253E-006
    0.945200000000E+004    0.185970664861E-006
    0.950200000000E+004    0.194156246885E-006
    0.955200000000E+004    0.202628349807E-006
    0.960200000000E+004    0.211394183275E-006
    0.965200000000E+004    0.220461053535E-006
    0.970200000000E+004    0.229836362813E-006
    0.975200000000E+004    0.239527608676E-006
    0.980200000000E+004    0.249542383347E-006
    0.985200000000E+004    0.259888372990E-006
    0.990200000000E+004    0.270573356961E-006
    0.995200000000E+004    0.281605207023E-006
    0.100020000000E+005    0.292991886527E-006
    0.100520000000E+005    0.304741449563E-006
    0.101020000000E+005    0.316862040076E-006
    0.101520000000E+005    0.329361890942E-006
    0.102020000000E+005    0.342249323028E-006
    0.102520000000E+005    0.355532744199E-006
    0.103020000000E+005    0.369220648314E-006
    0.103520000000E+005    0.383321614169E-006
    0.104020000000E+005    0.397844304427E-006
    0.104520000000E+005    0.412797464506E-006
    0.105020000000E+005    0.428189921436E-006
    0.105520000000E+005    0.444030582694E-006
    0.106020000000E+005    0.460328434997E-006
    0.106520000000E+005    0.477092543075E-006
    0.107020000000E+005    0.494332048407E-006
    0.107520000000E+005    0.512056167936E-006
    0.108020000000E+005    0.530274192743E-006
    0.108520000000E+005    0.548995486708E-006
    0.109020000000E+005    0.568229485130E-006
    0.109520000000E+005    0.587985693331E-006
    0.110020000000E+005    0.608273685219E-006
    0.110520000000E+005    0.629103101844E-006
    0.111020000000E+005    0.650483649912E-006
    0.111520000000E+005    0.672425100281E-006
    0.112020000000E+005    0.694937286435E-006
    0.112520000000E+005    0.718030102931E-006
    0.113020000000E+005    0.741713503822E-006
    0.113520000000E+005    0.765997501064E-006
    0.114020000000E+005    0.790892162893E-006
    0.114520000000E+005    0.816407612189E-006
    0.115020000000E+005    0.842554024812E-006
    0.115520000000E+005    0.869341627925E-006
    0.116020000000E+005    0.896780698296E-006
    0.116520000000E+005    0.924881560575E-006
    0.117020000000E+005    0.953654585564E-006
    0.117520000000E+005    0.983110188459E-006
    0.118020000000E+005    0.101325882708E-005
    0.118520000000E+005    0.104411100008E-005
    0.119020000000E+005    0.107567724514E-005
    0.119520000000E+005    0.110796813717E-005
    0.120020000000E+005    0.114099428642E-005
    0.120520000000E+005    0.117476633668E-005
    0.121020000000E+005    0.120929496339E-005
    0.121520000000E+005    0.124459087175E-005
    0.122020000000E+005    0.128066479484E-005
    0.122520000000E+005    0.131752749167E-005
    0.123020000000E+005    0.135518974530E-005
    0.123520000000E+005    0.139366236088E-005
    0.124020000000E+005    0.143295616368E-005
    0.124520000000E+005    0.147308199712E-005
    0.125020000000E+005    0.151405072082E-005
    0.125520000000E+005    0.155587320859E-005
    0.126020000000E+005    0.159856034639E-005
    0.126520000000E+005    0.164212303036E-005
    0.127020000000E+005    0.168657216478E-005
    0.127520000000E+005    0.173191865998E-005
    0.128020000000E+005    0.177817343037E-005
    0.128520000000E+005    0.182534739231E-005
    0.129020000000E+005    0.187345146210E-005
    0.129520000000E+005    0.192249655384E-005
    0.130020000000E+005    0.197249357740E-005
    0.130520000000E+005    0.202345343631E-005
    0.131020000000E+005    0.207538702567E-005
    0.131520000000E+005    0.212830523005E-005
    0.132020000000E+005    0.218221892139E-005
    0.132520000000E+005    0.223713895689E-005
    0.133020000000E+005    0.229307617691E-005
    0.133520000000E+005    0.235004140288E-005
    0.134020000000E+005    0.240804543517E-005
    0.134520000000E+005    0.246709905101E-005
    0.135020000000E+005    0.252721300237E-005
    0.135520000000E+005    0.258839801391E-005
    0.136020000000E+005    0.265066478081E-005
    0.136520000000E+005    0.271402396678E-005
    0.137020000000E+005    0.277848620192E-005
    0.137520000000E+005    0.284406208065E-005
    0.138020000000E+005    0.291076215970E-005
    0.138520000000E+005    0.297859695600E-005
    0.139020000000E+005    0.304757694468E-005
    0.139520000000E+005    0.311771255700E-005
    0.140020000000E+005    0.318901417839E-005
    0.140520000000E+005    0.326149214636E-005
    0.141020000000E+005    0.333515674857E-005
    0.141520000000E+005    0.341001822084E-005
    0.142020000000E+005    0.348608674515E-005
    0.142520000000E+005    0.356337244771E-005
    0.143020000000E+005    0.364188539703E-005
    0.143520000000E+005    0.372163560197E-005
    0.144020000000E+005    0.380263300985E-005
    0.144520000000E+005    0.388488750457E-005
    0.145020000000E+005    0.396840890472E-005
    0.145520000000E+005    0.405320696172E-005
    0.146020000000E+005    0.413929135801E-005
    0.146520000000E+005    0.422667170523E-005
    0.147020000000E+005    0.431535754238E-005
    0.147520000000E+005    0.440535833411E-005
    0.148020000000E+005    0.449668346893E-005
    0.148520000000E+005    0.458934225748E-005
    0.149020000000E+005    0.468334393083E-005
    0.149520000000E+005    0.477869763879E-005
    0.150020000000E+005    0.487541244827E-005
    0.150520000000E+005    0.497349734164E-005
    0.151020000000E+005    0.507296121513E-005
    0.151520000000E+005    0.517381287723E-005
    0.152020000000E+005    0.527606104721E-005
    0.152520000000E+005    0.537971435353E-005
    0.153020000000E+005    0.548478133242E-005
    0.153520000000E+005    0.559127042640E-005
    0.154020000000E+005    0.569918998287E-005
    0.154520000000E+005    0.580854825275E-005
    0.155020000000E+005    0.591935338912E-005
    0.155520000000E+005    0.603161344592E-005
    0.156020000000E+005    0.614533637669E-005
    0.156520000000E+005    0.626053003333E-005
    0.157020000000E+005    0.637720216493E-005
    0.157520000000E+005    0.649536041663E-005
    0.158020000000E+005    0.661501232850E-005
    0.158520000000E+005    0.673616533446E-005
    0.159020000000E+005    0.685882676132E-005
    0.159520000000E+005    0.698300382775E-005
    0.160020000000E+005    0.710870364337E-005
    0.160520000000E+005    0.723593320787E-005
    0.161020000000E+005    0.736469941016E-005
    0.161520000000E+005    0.749500902758E-005
    0.162020000000E+005    0.762686872511E-005
    0.162520000000E+005    0.776028505473E-005
    0.163020000000E+005    0.789526445468E-005
    0.163520000000E+005    0.803181324891E-005
    0.164020000000E+005    0.816993764644E-005
    0.164520000000E+005    0.830964374089E-005
    0.165020000000E+005    0.845093750993E-005
    0.165520000000E+005    0.859382481490E-005
    0.166020000000E+005    0.873831140035E-005
    0.166520000000E+005    0.888440289373E-005
    0.167020000000E+005    0.903210480503E-005
    0.167520000000E+005    0.918142252655E-005
    0.168020000000E+005    0.933236133262E-005
    0.168520000000E+005    0.948492637945E-005
    0.169020000000E+005    0.963912270495E-005
    0.169520000000E+005    0.979495522863E-005
    0.170020000000E+005    0.995242875154E-005
    0.170520000000E+005    0.101115479562E-004
    0.171020000000E+005    0.102723174067E-004
    0.171520000000E+005    0.104347415486E-004
    0.172020000000E+005    0.105988247092E-004
    0.172520000000E+005    0.107645710974E-004
    0.173020000000E+005    0.109319848042E-004
    0.173520000000E+005    0.111010698027E-004
    0.174020000000E+005    0.112718299483E-004
    0.174520000000E+005    0.114442689791E-004
    0.175020000000E+005    0.116183905162E-004
    0.175520000000E+005    0.117941980640E-004
    0.176020000000E+005    0.119716950107E-004
    0.176520000000E+005    0.121508846285E-004
    0.177020000000E+005    0.123317700745E-004
    0.177520000000E+005    0.125143543907E-004
    0.178020000000E+005    0.126986405051E-004
    0.178520000000E+005    0.128846312319E-004
    0.179020000000E+005    0.130723292720E-004
    0.179520000000E+005    0.132617372143E-004
    0.180020000000E+005    0.134528575360E-004
    0.180520000000E+005    0.136456926031E-004
    0.181020000000E+005    0.138402446719E-004
    0.181520000000E+005    0.140365158890E-004
    0.182020000000E+005    0.142345082932E-004
    0.182520000000E+005    0.144342238152E-004
    0.183020000000E+005    0.146356642796E-004
    0.183520000000E+005    0.148388314054E-004
    0.184020000000E+005    0.150437268072E-004
    0.184520000000E+005    0.152503519958E-004
    0.185020000000E+005    0.154587083803E-004
    0.185520000000E+005    0.156687972683E-004
    0.186020000000E+005    0.158806198675E-004
    0.186520000000E+005    0.160941772870E-004
    0.187020000000E+005    0.163094705383E-004
    0.187520000000E+005    0.165265005367E-004
    0.188020000000E+005    0.167452681029E-004
    0.188520000000E+005    0.169657739639E-004
    0.189020000000E+005    0.171880187547E-004
    0.189520000000E+005    0.174120030197E-004
    0.190020000000E+005    0.176377272140E-004
    0.190520000000E+005    0.178651917051E-004
    0.191020000000E+005    0.180943967742E-004
    0.191520000000E+005    0.183253426179E-004
    0.192020000000E+005    0.185580293497E-004
    0.192520000000E+005    0.187924570016E-004
    0.193020000000E+005    0.190286255259E-004
    0.193520000000E+005    0.192665347963E-004
    0.194020000000E+005    0.195061846102E-004
    0.194520000000E+005    0.197475746901E-004
    0.195020000000E+005    0.199907046852E-004
    0.195520000000E+005    0.202355741734E-004
    0.196020000000E+005    0.204821826627E-004
    0.196520000000E+005    0.207305295933E-004
    0.197020000000E+005    0.209806143393E-004
    0.197520000000E+005    0.212324362102E-004
    0.198020000000E+005    0.214859944531E-004
    0.198520000000E+005    0.217412882544E-004
    0.199020000000E+005    0.219983167415E-004
    0.199520000000E+005    0.222570789851E-004
    0.200020000000E+005    0.225175740003E-004
    0.200520000000E+005    0.227798007493E-004
    0.201020000000E+005    0.230437581430E-004
    0.201520000000E+005    0.233094450426E-004
    0.202020000000E+005    0.235768602622E-004
    0.202520000000E+005    0.238460025700E-004
    0.203020000000E+005    0.241168706910E-004
    0.203520000000E+005    0.243894633083E-004
    0.204020000000E+005    0.246637790656E-004
    0.204520000000E+005    0.249398165689E-004
    0.205020000000E+005    0.252175743887E-004
    0.205520000000E+005    0.254970510620E-004
    0.206020000000E+005    0.257782450940E-004
    0.206520000000E+005    0.260611549608E-004
    0.207020000000E+005    0.263457791108E-004
    0.207520000000E+005    0.266321159672E-004
    0.208020000000E+005    0.269201639300E-004
    0.208520000000E+005    0.272099213777E-004
    0.209020000000E+005    0.275013866700E-004
    0.209520000000E+005    0.277945581496E-004
    0.210020000000E+005    0.280894341442E-004
    0.210520000000E+005    0.283860129689E-004
    0.211020000000E+005    0.286842929278E-004
    0.211520000000E+005    0.289842723169E-004
