TITLE = "0D Field KB"
VARIABLES = N ,"KB_Ha10Rem1Re500"
ZONE DATAPACKING = POINT
    0.200000000000E+001    0.799992000074E-009
    0.520000000000E+002    0.540520789821E-006
    0.102000000000E+003    0.207820821588E-005
    0.152000000000E+003    0.460902842888E-005
    0.202000000000E+003    0.812453198090E-005
    0.252000000000E+003    0.126142070414E-004
    0.302000000000E+003    0.180666800276E-004
    0.352000000000E+003    0.244703342654E-004
    0.402000000000E+003    0.318136118302E-004
    0.452000000000E+003    0.400851584066E-004
    0.502000000000E+003    0.492738896060E-004
    0.552000000000E+003    0.593690171181E-004
    0.602000000000E+003    0.703600540338E-004
    0.652000000000E+003    0.822368093984E-004
    0.702000000000E+003    0.949893773731E-004
    0.752000000000E+003    0.108608123930E-003
    0.802000000000E+003    0.123083672685E-003
    0.852000000000E+003    0.138406890750E-003
    0.902000000000E+003    0.154568875062E-003
    0.952000000000E+003    0.171560939435E-003
    0.100200000000E+004    0.189374602427E-003
    0.105200000000E+004    0.208001576042E-003
    0.110200000000E+004    0.227433755264E-003
    0.115200000000E+004    0.247663208365E-003
    0.120200000000E+004    0.268682167954E-003
    0.125200000000E+004    0.290483022692E-003
    0.130200000000E+004    0.313058309643E-003
    0.135200000000E+004    0.336400707178E-003
    0.140200000000E+004    0.360503028411E-003
    0.145200000000E+004    0.385358215105E-003
    0.150200000000E+004    0.410959332004E-003
    0.155200000000E+004    0.437299561570E-003
    0.160200000000E+004    0.464372199066E-003
    0.165200000000E+004    0.492170647978E-003
    0.170200000000E+004    0.520688415732E-003
    0.175200000000E+004    0.549919109685E-003
    0.180200000000E+004    0.579856433364E-003
    0.185200000000E+004    0.610494182945E-003
    0.190200000000E+004    0.641826243937E-003
    0.195200000000E+004    0.673846588057E-003
    0.200200000000E+004    0.706549270298E-003
    0.205200000000E+004    0.739928426150E-003
    0.210200000000E+004    0.773978268982E-003
    0.215200000000E+004    0.808693087566E-003
    0.220200000000E+004    0.844067243725E-003
    0.225200000000E+004    0.880095170114E-003
    0.230200000000E+004    0.916771368109E-003
    0.235200000000E+004    0.954090405799E-003
    0.240200000000E+004    0.992046916082E-003
    0.245200000000E+004    0.103063559485E-002
    0.250200000000E+004    0.106985119926E-002
    0.255200000000E+004    0.110968854610E-002
    0.260200000000E+004    0.115014251018E-002
    0.265200000000E+004    0.119120802288E-002
    0.270200000000E+004    0.123288007067E-002
    0.275200000000E+004    0.127515369377E-002
    0.280200000000E+004    0.131802398481E-002
    0.285200000000E+004    0.136148608758E-002
    0.290200000000E+004    0.140553519583E-002
    0.295200000000E+004    0.145016655210E-002
    0.300200000000E+004    0.149537544660E-002
    0.305200000000E+004    0.154115721616E-002
    0.310200000000E+004    0.158750724320E-002
    0.315200000000E+004    0.163442095473E-002
    0.320200000000E+004    0.168189382140E-002
    0.325200000000E+004    0.172992135658E-002
    0.330200000000E+004    0.177849911550E-002
    0.335200000000E+004    0.182762269437E-002
    0.340200000000E+004    0.187728772956E-002
    0.345200000000E+004    0.192748989683E-002
    0.350200000000E+004    0.197822491056E-002
    0.355200000000E+004    0.202948852297E-002
    0.360200000000E+004    0.208127652347E-002
    0.365200000000E+004    0.213358473790E-002
    0.370200000000E+004    0.218640902792E-002
    0.375200000000E+004    0.223974529033E-002
    0.380200000000E+004    0.229358945643E-002
    0.385200000000E+004    0.234793749145E-002
    0.390200000000E+004    0.240278539394E-002
    0.395200000000E+004    0.245812919519E-002
    0.400200000000E+004    0.251396495870E-002
    0.405200000000E+004    0.257028877960E-002
    0.410200000000E+004    0.262709678419E-002
    0.415200000000E+004    0.268438512938E-002
    0.420200000000E+004    0.274215000221E-002
    0.425200000000E+004    0.280038761939E-002
    0.430200000000E+004    0.285909422681E-002
    0.435200000000E+004    0.291826609912E-002
    0.440200000000E+004    0.297789953925E-002
    0.445200000000E+004    0.303799087802E-002
    0.450200000000E+004    0.309853647367E-002
    0.455200000000E+004    0.315953271154E-002
    0.460200000000E+004    0.322097600357E-002
    0.465200000000E+004    0.328286278801E-002
    0.470200000000E+004    0.334518952897E-002
    0.475200000000E+004    0.340795271611E-002
    0.480200000000E+004    0.347114886426E-002
    0.485200000000E+004    0.353477451305E-002
    0.490200000000E+004    0.359882622663E-002
    0.495200000000E+004    0.366330059327E-002
    0.500200000000E+004    0.372819422507E-002
    0.505200000000E+004    0.379350375767E-002
    0.510200000000E+004    0.385922584988E-002
    0.515200000000E+004    0.392535718344E-002
    0.520200000000E+004    0.399189446268E-002
    0.525200000000E+004    0.405883441429E-002
    0.530200000000E+004    0.412617378695E-002
    0.535200000000E+004    0.419390935115E-002
    0.540200000000E+004    0.426203789885E-002
    0.545200000000E+004    0.433055624327E-002
    0.550200000000E+004    0.439946121860E-002
    0.555200000000E+004    0.446874967974E-002
    0.560200000000E+004    0.453841850210E-002
    0.565200000000E+004    0.460846458132E-002
    0.570200000000E+004    0.467888483305E-002
    0.575200000000E+004    0.474967619271E-002
    0.580200000000E+004    0.482083561528E-002
    0.585200000000E+004    0.489236007507E-002
    0.590200000000E+004    0.496424656548E-002
    0.595200000000E+004    0.503649209883E-002
    0.600200000000E+004    0.510909370612E-002
    0.605200000000E+004    0.518204843686E-002
    0.610200000000E+004    0.525535335883E-002
    0.615200000000E+004    0.532900555790E-002
    0.620200000000E+004    0.540300213786E-002
    0.625200000000E+004    0.547734022019E-002
    0.630200000000E+004    0.555201694390E-002
    0.635200000000E+004    0.562702946536E-002
    0.640200000000E+004    0.570237495809E-002
    0.645200000000E+004    0.577805061262E-002
    0.650200000000E+004    0.585405363630E-002
    0.655200000000E+004    0.593038125313E-002
    0.660200000000E+004    0.600703070359E-002
    0.665200000000E+004    0.608399924451E-002
    0.670200000000E+004    0.616128414887E-002
    0.675200000000E+004    0.623888270567E-002
    0.680200000000E+004    0.631679221976E-002
    0.685200000000E+004    0.639501001172E-002
    0.690200000000E+004    0.647353341765E-002
    0.695200000000E+004    0.655235978912E-002
    0.700200000000E+004    0.663148649294E-002
    0.705200000000E+004    0.671091091104E-002
    0.710200000000E+004    0.679063044037E-002
    0.715200000000E+004    0.687064249273E-002
    0.720200000000E+004    0.695094449464E-002
    0.725200000000E+004    0.703153388721E-002
    0.730200000000E+004    0.711240812603E-002
    0.735200000000E+004    0.719356468103E-002
    0.740200000000E+004    0.727500103633E-002
    0.745200000000E+004    0.735671469017E-002
    0.750200000000E+004    0.743870315474E-002
    0.755200000000E+004    0.752096395610E-002
    0.760200000000E+004    0.760349463403E-002
    0.765200000000E+004    0.768629274194E-002
    0.770200000000E+004    0.776935584674E-002
    0.775200000000E+004    0.785268152876E-002
    0.780200000000E+004    0.793626738158E-002
    0.785200000000E+004    0.802011101200E-002
    0.790200000000E+004    0.810421003988E-002
    0.795200000000E+004    0.818856209803E-002
    0.800200000000E+004    0.827316483215E-002
    0.805200000000E+004    0.835801590070E-002
    0.810200000000E+004    0.844311297480E-002
    0.815200000000E+004    0.852845373815E-002
    0.820200000000E+004    0.861403588692E-002
    0.825200000000E+004    0.869985712965E-002
    0.830200000000E+004    0.878591518716E-002
    0.835200000000E+004    0.887220779247E-002
    0.840200000000E+004    0.895873269070E-002
    0.845200000000E+004    0.904548763897E-002
    0.850200000000E+004    0.913247040633E-002
    0.855200000000E+004    0.921967877366E-002
    0.860200000000E+004    0.930711053360E-002
    0.865200000000E+004    0.939476349043E-002
    0.870200000000E+004    0.948263546004E-002
    0.875200000000E+004    0.957072426980E-002
    0.880200000000E+004    0.965902775850E-002
    0.885200000000E+004    0.974754377627E-002
    0.890200000000E+004    0.983627018449E-002
    0.895200000000E+004    0.992520485575E-002
    0.900200000000E+004    0.100143456737E-001
    0.905200000000E+004    0.101036905331E-001
    0.910200000000E+004    0.101932373395E-001
    0.915200000000E+004    0.102829840095E-001
    0.920200000000E+004    0.103729284704E-001
    0.925200000000E+004    0.104630686604E-001
    0.930200000000E+004    0.105534025281E-001
    0.935200000000E+004    0.106439280330E-001
    0.940200000000E+004    0.107346431448E-001
    0.945200000000E+004    0.108255458439E-001
    0.950200000000E+004    0.109166341211E-001
    0.955200000000E+004    0.110079059773E-001
    0.960200000000E+004    0.110993594239E-001
    0.965200000000E+004    0.111909924824E-001
    0.970200000000E+004    0.112828031845E-001
    0.975200000000E+004    0.113747895717E-001
    0.980200000000E+004    0.114669496958E-001
    0.985200000000E+004    0.115592816186E-001
    0.990200000000E+004    0.116517834114E-001
    0.995200000000E+004    0.117444531557E-001
    0.100020000000E+005    0.118372889427E-001
    0.100520000000E+005    0.119302888731E-001
    0.101020000000E+005    0.120234510574E-001
    0.101520000000E+005    0.121167736158E-001
    0.102020000000E+005    0.122102546778E-001
    0.102520000000E+005    0.123038923825E-001
    0.103020000000E+005    0.123976848784E-001
    0.103520000000E+005    0.124916303235E-001
    0.104020000000E+005    0.125857268850E-001
    0.104520000000E+005    0.126799727392E-001
    0.105020000000E+005    0.127743660719E-001
    0.105520000000E+005    0.128689050780E-001
    0.106020000000E+005    0.129635879613E-001
    0.106520000000E+005    0.130584129349E-001
    0.107020000000E+005    0.131533782208E-001
    0.107520000000E+005    0.132484820499E-001
    0.108020000000E+005    0.133437226621E-001
    0.108520000000E+005    0.134390983062E-001
    0.109020000000E+005    0.135346072397E-001
    0.109520000000E+005    0.136302477288E-001
    0.110020000000E+005    0.137260180486E-001
    0.110520000000E+005    0.138219164828E-001
    0.111020000000E+005    0.139179413237E-001
    0.111520000000E+005    0.140140908722E-001
    0.112020000000E+005    0.141103634376E-001
    0.112520000000E+005    0.142067573378E-001
    0.113020000000E+005    0.143032708993E-001
    0.113520000000E+005    0.143999024567E-001
    0.114020000000E+005    0.144966503531E-001
    0.114520000000E+005    0.145935129400E-001
    0.115020000000E+005    0.146904885769E-001
    0.115520000000E+005    0.147875756319E-001
    0.116020000000E+005    0.148847724809E-001
    0.116520000000E+005    0.149820775081E-001
    0.117020000000E+005    0.150794891060E-001
    0.117520000000E+005    0.151770056749E-001
    0.118020000000E+005    0.152746256232E-001
    0.118520000000E+005    0.153723473673E-001
    0.119020000000E+005    0.154701693314E-001
    0.119520000000E+005    0.155680899479E-001
    0.120020000000E+005    0.156661076569E-001
    0.120520000000E+005    0.157642209061E-001
    0.121020000000E+005    0.158624281514E-001
    0.121520000000E+005    0.159607278562E-001
    0.122020000000E+005    0.160591184917E-001
    0.122520000000E+005    0.161575985366E-001
    0.123020000000E+005    0.162561664775E-001
    0.123520000000E+005    0.163548208084E-001
    0.124020000000E+005    0.164535600310E-001
    0.124520000000E+005    0.165523826544E-001
    0.125020000000E+005    0.166512871953E-001
    0.125520000000E+005    0.167502721778E-001
    0.126020000000E+005    0.168493361335E-001
    0.126520000000E+005    0.169484776012E-001
    0.127020000000E+005    0.170476951273E-001
    0.127520000000E+005    0.171469872653E-001
    0.128020000000E+005    0.172463525762E-001
    0.128520000000E+005    0.173457896280E-001
    0.129020000000E+005    0.174452969961E-001
    0.129520000000E+005    0.175448732631E-001
    0.130020000000E+005    0.176445170186E-001
    0.130520000000E+005    0.177442268594E-001
    0.131020000000E+005    0.178440013895E-001
    0.131520000000E+005    0.179438392198E-001
    0.132020000000E+005    0.180437389682E-001
    0.132520000000E+005    0.181436992598E-001
    0.133020000000E+005    0.182437187264E-001
    0.133520000000E+005    0.183437960069E-001
    0.134020000000E+005    0.184439297470E-001
    0.134520000000E+005    0.185441185994E-001
    0.135020000000E+005    0.186443612235E-001
    0.135520000000E+005    0.187446562855E-001
    0.136020000000E+005    0.188450024586E-001
    0.136520000000E+005    0.189453984224E-001
    0.137020000000E+005    0.190458428635E-001
    0.137520000000E+005    0.191463344750E-001
    0.138020000000E+005    0.192468719569E-001
    0.138520000000E+005    0.193474540155E-001
    0.139020000000E+005    0.194480793638E-001
    0.139520000000E+005    0.195487467217E-001
    0.140020000000E+005    0.196494548152E-001
    0.140520000000E+005    0.197502023770E-001
    0.141020000000E+005    0.198509881462E-001
    0.141520000000E+005    0.199518108687E-001
    0.142020000000E+005    0.200526692963E-001
    0.142520000000E+005    0.201535621875E-001
    0.143020000000E+005    0.202544883072E-001
    0.143520000000E+005    0.203554464267E-001
    0.144020000000E+005    0.204564353233E-001
    0.144520000000E+005    0.205574537808E-001
    0.145020000000E+005    0.206585005895E-001
    0.145520000000E+005    0.207595745454E-001
    0.146020000000E+005    0.208606744513E-001
    0.146520000000E+005    0.209617991157E-001
    0.147020000000E+005    0.210629473535E-001
    0.147520000000E+005    0.211641179858E-001
    0.148020000000E+005    0.212653098396E-001
    0.148520000000E+005    0.213665217481E-001
    0.149020000000E+005    0.214677525506E-001
    0.149520000000E+005    0.215690010923E-001
    0.150020000000E+005    0.216702662246E-001
    0.150520000000E+005    0.217715468047E-001
    0.151020000000E+005    0.218728416957E-001
    0.151520000000E+005    0.219741497670E-001
    0.152020000000E+005    0.220754698935E-001
    0.152520000000E+005    0.221768009562E-001
    0.153020000000E+005    0.222781418419E-001
    0.153520000000E+005    0.223794914432E-001
    0.154020000000E+005    0.224808486585E-001
    0.154520000000E+005    0.225822123921E-001
    0.155020000000E+005    0.226835815540E-001
    0.155520000000E+005    0.227849550598E-001
    0.156020000000E+005    0.228863318312E-001
    0.156520000000E+005    0.229877107950E-001
    0.157020000000E+005    0.230890908843E-001
    0.157520000000E+005    0.231904710373E-001
    0.158020000000E+005    0.232918501982E-001
    0.158520000000E+005    0.233932273166E-001
    0.159020000000E+005    0.234946013477E-001
    0.159520000000E+005    0.235959712523E-001
    0.160020000000E+005    0.236973359968E-001
    0.160520000000E+005    0.237986945529E-001
    0.161020000000E+005    0.239000458979E-001
    0.161520000000E+005    0.240013890146E-001
    0.162020000000E+005    0.241027228912E-001
    0.162520000000E+005    0.242040465213E-001
    0.163020000000E+005    0.243053589038E-001
    0.163520000000E+005    0.244066590433E-001
    0.164020000000E+005    0.245079459493E-001
    0.164520000000E+005    0.246092186370E-001
    0.165020000000E+005    0.247104761266E-001
    0.165520000000E+005    0.248117174439E-001
    0.166020000000E+005    0.249129416198E-001
    0.166520000000E+005    0.250141476903E-001
    0.167020000000E+005    0.251153346969E-001
    0.167520000000E+005    0.252165016861E-001
    0.168020000000E+005    0.253176477097E-001
    0.168520000000E+005    0.254187718246E-001
    0.169020000000E+005    0.255198730928E-001
    0.169520000000E+005    0.256209505814E-001
    0.170020000000E+005    0.257220033628E-001
    0.170520000000E+005    0.258230305142E-001
    0.171020000000E+005    0.259240311180E-001
    0.171520000000E+005    0.260250042616E-001
    0.172020000000E+005    0.261259490375E-001
    0.172520000000E+005    0.262268645429E-001
    0.173020000000E+005    0.263277498804E-001
    0.173520000000E+005    0.264286041573E-001
    0.174020000000E+005    0.265294264858E-001
    0.174520000000E+005    0.266302159831E-001
    0.175020000000E+005    0.267309717712E-001
    0.175520000000E+005    0.268316929772E-001
    0.176020000000E+005    0.269323787327E-001
    0.176520000000E+005    0.270330281745E-001
    0.177020000000E+005    0.271336404439E-001
    0.177520000000E+005    0.272342146873E-001
    0.178020000000E+005    0.273347500555E-001
    0.178520000000E+005    0.274352457044E-001
    0.179020000000E+005    0.275357007944E-001
    0.179520000000E+005    0.276361144908E-001
    0.180020000000E+005    0.277364859635E-001
    0.180520000000E+005    0.278368143871E-001
    0.181020000000E+005    0.279370989408E-001
    0.181520000000E+005    0.280373388084E-001
    0.182020000000E+005    0.281375331786E-001
    0.182520000000E+005    0.282376812444E-001
    0.183020000000E+005    0.283377822035E-001
    0.183520000000E+005    0.284378352583E-001
    0.184020000000E+005    0.285378396154E-001
    0.184520000000E+005    0.286377944862E-001
    0.185020000000E+005    0.287376990866E-001
    0.185520000000E+005    0.288375526370E-001
    0.186020000000E+005    0.289373543621E-001
    0.186520000000E+005    0.290371034912E-001
    0.187020000000E+005    0.291367992580E-001
    0.187520000000E+005    0.292364409007E-001
    0.188020000000E+005    0.293360276618E-001
    0.188520000000E+005    0.294355587882E-001
    0.189020000000E+005    0.295350335312E-001
    0.189520000000E+005    0.296344511464E-001
    0.190020000000E+005    0.297338108938E-001
    0.190520000000E+005    0.298331120377E-001
    0.191020000000E+005    0.299323538467E-001
    0.191520000000E+005    0.300315355935E-001
    0.192020000000E+005    0.301306565554E-001
    0.192520000000E+005    0.302297160136E-001
    0.193020000000E+005    0.303287132538E-001
    0.193520000000E+005    0.304276475658E-001
    0.194020000000E+005    0.305265182434E-001
    0.194520000000E+005    0.306253245850E-001
    0.195020000000E+005    0.307240658929E-001
    0.195520000000E+005    0.308227414734E-001
    0.196020000000E+005    0.309213506372E-001
    0.196520000000E+005    0.310198926990E-001
    0.197020000000E+005    0.311183669775E-001
    0.197520000000E+005    0.312167727957E-001
    0.198020000000E+005    0.313151094804E-001
    0.198520000000E+005    0.314133763626E-001
    0.199020000000E+005    0.315115727773E-001
    0.199520000000E+005    0.316096980635E-001
    0.200020000000E+005    0.317077515642E-001
    0.200520000000E+005    0.318057326263E-001
    0.201020000000E+005    0.319036406008E-001
    0.201520000000E+005    0.320014748425E-001
    0.202020000000E+005    0.320992347103E-001
    0.202520000000E+005    0.321969195667E-001
    0.203020000000E+005    0.322945287785E-001
    0.203520000000E+005    0.323920617161E-001
    0.204020000000E+005    0.324895177539E-001
    0.204520000000E+005    0.325868962700E-001
    0.205020000000E+005    0.326841966464E-001
    0.205520000000E+005    0.327814182690E-001
    0.206020000000E+005    0.328785605275E-001
    0.206520000000E+005    0.329756228153E-001
    0.207020000000E+005    0.330726045295E-001
    0.207520000000E+005    0.331695050710E-001
    0.208020000000E+005    0.332663238447E-001
    0.208520000000E+005    0.333630602589E-001
    0.209020000000E+005    0.334597137256E-001
    0.209520000000E+005    0.335562836608E-001
    0.210020000000E+005    0.336527694839E-001
    0.210520000000E+005    0.337491706180E-001
    0.211020000000E+005    0.338454864900E-001
