TITLE = "0D Field KU"
VARIABLES = N ,"KU_Ha100Rem10Re100"
ZONE DATAPACKING = POINT
    0.200000000000E+001    0.560151387005E-035
    0.520000000000E+002    0.614714551093E-031
    0.102000000000E+003    0.239801223072E-024
    0.152000000000E+003    0.102697731644E-020
    0.202000000000E+003    0.288672222057E-018
    0.252000000000E+003    0.183261890665E-016
    0.302000000000E+003    0.453133611289E-015
    0.352000000000E+003    0.588779095666E-014
    0.402000000000E+003    0.482597121945E-013
    0.452000000000E+003    0.280934405943E-012
    0.502000000000E+003    0.125887645606E-011
    0.552000000000E+003    0.459580857256E-011
    0.602000000000E+003    0.142445996321E-010
    0.652000000000E+003    0.386552973567E-010
    0.702000000000E+003    0.940213644620E-010
    0.752000000000E+003    0.208742272585E-009
    0.802000000000E+003    0.429127852614E-009
    0.852000000000E+003    0.826263597008E-009
    0.902000000000E+003    0.150386257679E-008
    0.952000000000E+003    0.260686170558E-008
    0.100200000000E+004    0.433048353646E-008
    0.105200000000E+004    0.692947880661E-008
    0.110200000000E+004    0.107272855541E-007
    0.115200000000E+004    0.161248789498E-007
    0.120200000000E+004    0.236091263586E-007
    0.125200000000E+004    0.337604932869E-007
    0.130200000000E+004    0.472599707192E-007
    0.135200000000E+004    0.648951214496E-007
    0.140200000000E+004    0.875651761599E-007
    0.145200000000E+004    0.116285148221E-006
    0.150200000000E+004    0.152188977713E-006
    0.155200000000E+004    0.196531755076E-006
    0.160200000000E+004    0.250691098993E-006
    0.165200000000E+004    0.316167758584E-006
    0.170200000000E+004    0.394585486580E-006
    0.175200000000E+004    0.487690212233E-006
    0.180200000000E+004    0.597348542898E-006
    0.185200000000E+004    0.725545638549E-006
    0.190200000000E+004    0.874382528177E-006
    0.195200000000E+004    0.104607296506E-005
    0.200200000000E+004    0.124293993491E-005
    0.205200000000E+004    0.146741191566E-005
    0.210200000000E+004    0.172201893905E-005
    0.215200000000E+004    0.200938845519E-005
    0.220200000000E+004    0.233224098354E-005
    0.225200000000E+004    0.269338554717E-005
    0.230200000000E+004    0.309571491945E-005
    0.235200000000E+004    0.354220075001E-005
    0.240200000000E+004    0.403588866780E-005
    0.245200000000E+004    0.457989345926E-005
    0.250200000000E+004    0.517739437228E-005
    0.255200000000E+004    0.583163052490E-005
    0.260200000000E+004    0.654589635294E-005
    0.265200000000E+004    0.732353703574E-005
    0.270200000000E+004    0.816794388012E-005
    0.275200000000E+004    0.908254969517E-005
    0.280200000000E+004    0.100708242395E-004
    0.285200000000E+004    0.111362698448E-004
    0.290200000000E+004    0.122824172921E-004
    0.295200000000E+004    0.135128219361E-004
    0.300200000000E+004    0.148310599963E-004
    0.305200000000E+004    0.162407249076E-004
    0.310200000000E+004    0.177454236584E-004
    0.315200000000E+004    0.193487731119E-004
    0.320200000000E+004    0.210543963725E-004
    0.325200000000E+004    0.228659193039E-004
    0.330200000000E+004    0.247869673092E-004
    0.335200000000E+004    0.268211624131E-004
    0.340200000000E+004    0.289721205884E-004
    0.345200000000E+004    0.312434491980E-004
    0.350200000000E+004    0.336387444302E-004
    0.355200000000E+004    0.361615886741E-004
    0.360200000000E+004    0.388155478644E-004
    0.365200000000E+004    0.416041688963E-004
    0.370200000000E+004    0.445309772418E-004
    0.375200000000E+004    0.475994748634E-004
    0.380200000000E+004    0.508131384194E-004
    0.385200000000E+004    0.541754176483E-004
    0.390200000000E+004    0.576897337766E-004
    0.395200000000E+004    0.613594778371E-004
    0.400200000000E+004    0.651880088795E-004
    0.405200000000E+004    0.691786521483E-004
    0.410200000000E+004    0.733346973652E-004
    0.415200000000E+004    0.776593972549E-004
    0.420200000000E+004    0.821559663759E-004
    0.425200000000E+004    0.868275801960E-004
    0.430200000000E+004    0.916773742551E-004
    0.435200000000E+004    0.967084432525E-004
    0.440200000000E+004    0.101923839975E-003
    0.445200000000E+004    0.107326574096E-003
    0.450200000000E+004    0.112919610966E-003
    0.455200000000E+004    0.118705870555E-003
    0.460200000000E+004    0.124688226671E-003
    0.465200000000E+004    0.130869506474E-003
    0.470200000000E+004    0.137252490156E-003
    0.475200000000E+004    0.143839910606E-003
    0.480200000000E+004    0.150634452923E-003
    0.485200000000E+004    0.157638753716E-003
    0.490200000000E+004    0.164855400292E-003
    0.495200000000E+004    0.172286929889E-003
    0.500200000000E+004    0.179935829100E-003
    0.505200000000E+004    0.187804533615E-003
    0.510200000000E+004    0.195895428196E-003
    0.515200000000E+004    0.204210846742E-003
    0.520200000000E+004    0.212753072241E-003
    0.525200000000E+004    0.221524336500E-003
    0.530200000000E+004    0.230526819663E-003
    0.535200000000E+004    0.239762649652E-003
    0.540200000000E+004    0.249233901712E-003
    0.545200000000E+004    0.258942598216E-003
    0.550200000000E+004    0.268890708762E-003
    0.555200000000E+004    0.279080150457E-003
    0.560200000000E+004    0.289512788186E-003
    0.565200000000E+004    0.300190434686E-003
    0.570200000000E+004    0.311114850365E-003
    0.575200000000E+004    0.322287742938E-003
    0.580200000000E+004    0.333710767036E-003
    0.585200000000E+004    0.345385524006E-003
    0.590200000000E+004    0.357313561993E-003
    0.595200000000E+004    0.369496376287E-003
    0.600200000000E+004    0.381935409781E-003
    0.605200000000E+004    0.394632053310E-003
    0.610200000000E+004    0.407587645746E-003
    0.615200000000E+004    0.420803473823E-003
    0.620200000000E+004    0.434280771839E-003
    0.625200000000E+004    0.448020721411E-003
    0.630200000000E+004    0.462024451472E-003
    0.635200000000E+004    0.476293038568E-003
    0.640200000000E+004    0.490827507369E-003
    0.645200000000E+004    0.505628831186E-003
    0.650200000000E+004    0.520697932301E-003
    0.655200000000E+004    0.536035682009E-003
    0.660200000000E+004    0.551642900422E-003
    0.665200000000E+004    0.567520356224E-003
    0.670200000000E+004    0.583668766551E-003
    0.675200000000E+004    0.600088797170E-003
    0.680200000000E+004    0.616781062931E-003
    0.685200000000E+004    0.633746128356E-003
    0.690200000000E+004    0.650984508151E-003
    0.695200000000E+004    0.668496667456E-003
    0.700200000000E+004    0.686283021809E-003
    0.705200000000E+004    0.704343936932E-003
    0.710200000000E+004    0.722679728533E-003
    0.715200000000E+004    0.741290662326E-003
    0.720200000000E+004    0.760176954356E-003
    0.725200000000E+004    0.779338771552E-003
    0.730200000000E+004    0.798776232339E-003
    0.735200000000E+004    0.818489407071E-003
    0.740200000000E+004    0.838478318179E-003
    0.745200000000E+004    0.858742940049E-003
    0.750200000000E+004    0.879283198797E-003
    0.755200000000E+004    0.900098972144E-003
    0.760200000000E+004    0.921190089568E-003
    0.765200000000E+004    0.942556332736E-003
    0.770200000000E+004    0.964197436117E-003
    0.775200000000E+004    0.986113087545E-003
    0.780200000000E+004    0.100830292853E-002
    0.785200000000E+004    0.103076655431E-002
    0.790200000000E+004    0.105350351361E-002
    0.795200000000E+004    0.107651330846E-002
    0.800200000000E+004    0.109979539413E-002
    0.805200000000E+004    0.112334917943E-002
    0.810200000000E+004    0.114717402717E-002
    0.815200000000E+004    0.117126925481E-002
    0.820200000000E+004    0.119563413487E-002
    0.825200000000E+004    0.122026789515E-002
    0.830200000000E+004    0.124516971862E-002
    0.835200000000E+004    0.127033874312E-002
    0.840200000000E+004    0.129577406123E-002
    0.845200000000E+004    0.132147472027E-002
    0.850200000000E+004    0.134743972267E-002
    0.855200000000E+004    0.137366802648E-002
    0.860200000000E+004    0.140015854595E-002
    0.865200000000E+004    0.142691015179E-002
    0.870200000000E+004    0.145392167125E-002
    0.875200000000E+004    0.148119188784E-002
    0.880200000000E+004    0.150871954108E-002
    0.885200000000E+004    0.153650332634E-002
    0.890200000000E+004    0.156454189497E-002
    0.895200000000E+004    0.159283385473E-002
    0.900200000000E+004    0.162137777026E-002
    0.905200000000E+004    0.165017216356E-002
    0.910200000000E+004    0.167921551417E-002
    0.915200000000E+004    0.170850625900E-002
    0.920200000000E+004    0.173804279207E-002
    0.925200000000E+004    0.176782346427E-002
    0.930200000000E+004    0.179784658325E-002
    0.935200000000E+004    0.182811041372E-002
    0.940200000000E+004    0.185861317789E-002
    0.945200000000E+004    0.188935305600E-002
    0.950200000000E+004    0.192032818667E-002
    0.955200000000E+004    0.195153666700E-002
    0.960200000000E+004    0.198297655239E-002
    0.965200000000E+004    0.201464585629E-002
    0.970200000000E+004    0.204654255005E-002
    0.975200000000E+004    0.207866456312E-002
    0.980200000000E+004    0.211100978344E-002
    0.985200000000E+004    0.214357605809E-002
    0.990200000000E+004    0.217636119384E-002
    0.995200000000E+004    0.220936295758E-002
    0.100020000000E+005    0.224257907642E-002
    0.100520000000E+005    0.227600723765E-002
    0.101020000000E+005    0.230964508872E-002
    0.101520000000E+005    0.234349023742E-002
    0.102020000000E+005    0.237754025234E-002
    0.102520000000E+005    0.241179266370E-002
    0.103020000000E+005    0.244624496420E-002
    0.103520000000E+005    0.248089460979E-002
    0.104020000000E+005    0.251573902033E-002
    0.104520000000E+005    0.255077557985E-002
    0.105020000000E+005    0.258600163691E-002
    0.105520000000E+005    0.262141450495E-002
    0.106020000000E+005    0.265701146294E-002
    0.106520000000E+005    0.269278975642E-002
    0.107020000000E+005    0.272874659868E-002
    0.107520000000E+005    0.276487917204E-002
    0.108020000000E+005    0.280118462894E-002
    0.108520000000E+005    0.283766009289E-002
    0.109020000000E+005    0.287430265917E-002
    0.109520000000E+005    0.291110939558E-002
    0.110020000000E+005    0.294807734332E-002
    0.110520000000E+005    0.298520351828E-002
    0.111020000000E+005    0.302248491247E-002
    0.111520000000E+005    0.305991849578E-002
    0.112020000000E+005    0.309750121753E-002
    0.112520000000E+005    0.313523000794E-002
    0.113020000000E+005    0.317310177933E-002
    0.113520000000E+005    0.321111342723E-002
    0.114020000000E+005    0.324926183151E-002
    0.114520000000E+005    0.328754385774E-002
    0.115020000000E+005    0.332595635892E-002
    0.115520000000E+005    0.336449617727E-002
    0.116020000000E+005    0.340316014625E-002
    0.116520000000E+005    0.344194509230E-002
    0.117020000000E+005    0.348084783641E-002
    0.117520000000E+005    0.351986519548E-002
    0.118020000000E+005    0.355899398357E-002
    0.118520000000E+005    0.359823101324E-002
    0.119020000000E+005    0.363757309717E-002
    0.119520000000E+005    0.367701704993E-002
    0.120020000000E+005    0.371655969000E-002
    0.120520000000E+005    0.375619784161E-002
    0.121020000000E+005    0.379592833640E-002
    0.121520000000E+005    0.383574801486E-002
    0.122020000000E+005    0.387565372751E-002
    0.122520000000E+005    0.391564233606E-002
    0.123020000000E+005    0.395571071471E-002
    0.123520000000E+005    0.399585575166E-002
    0.124020000000E+005    0.403607435078E-002
    0.124520000000E+005    0.407636343333E-002
    0.125020000000E+005    0.411671993946E-002
    0.125520000000E+005    0.415714082960E-002
    0.126020000000E+005    0.419762308537E-002
    0.126520000000E+005    0.423816371052E-002
    0.127020000000E+005    0.427875973179E-002
    0.127520000000E+005    0.431940819993E-002
    0.128020000000E+005    0.436010619099E-002
    0.128520000000E+005    0.440085080760E-002
    0.129020000000E+005    0.444163918030E-002
    0.129520000000E+005    0.448246846860E-002
    0.130020000000E+005    0.452333586181E-002
    0.130520000000E+005    0.456423857958E-002
    0.131020000000E+005    0.460517387243E-002
    0.131520000000E+005    0.464613902230E-002
    0.132020000000E+005    0.468713134330E-002
    0.132520000000E+005    0.472814818267E-002
    0.133020000000E+005    0.476918692169E-002
    0.133520000000E+005    0.481024497660E-002
    0.134020000000E+005    0.485131979919E-002
    0.134520000000E+005    0.489240887724E-002
    0.135020000000E+005    0.493350973462E-002
    0.135520000000E+005    0.497461993161E-002
    0.136020000000E+005    0.501573706515E-002
    0.136520000000E+005    0.505685876945E-002
    0.137020000000E+005    0.509798271657E-002
    0.137520000000E+005    0.513910661720E-002
    0.138020000000E+005    0.518022822107E-002
    0.138520000000E+005    0.522134531730E-002
    0.139020000000E+005    0.526245573443E-002
    0.139520000000E+005    0.530355734040E-002
    0.140020000000E+005    0.534464804259E-002
    0.140520000000E+005    0.538572578807E-002
    0.141020000000E+005    0.542678856394E-002
    0.141520000000E+005    0.546783439787E-002
    0.142020000000E+005    0.550886135853E-002
    0.142520000000E+005    0.554986755585E-002
    0.143020000000E+005    0.559085114105E-002
    0.143520000000E+005    0.563181030653E-002
    0.144020000000E+005    0.567274328571E-002
    0.144520000000E+005    0.571364835303E-002
    0.145020000000E+005    0.575452382411E-002
    0.145520000000E+005    0.579536805611E-002
    0.146020000000E+005    0.583617944806E-002
    0.146520000000E+005    0.587695644122E-002
    0.147020000000E+005    0.591769751905E-002
    0.147520000000E+005    0.595840120721E-002
    0.148020000000E+005    0.599906607325E-002
    0.148520000000E+005    0.603969072651E-002
    0.149020000000E+005    0.608027381810E-002
    0.149520000000E+005    0.612081404106E-002
    0.150020000000E+005    0.616131013071E-002
    0.150520000000E+005    0.620176086493E-002
    0.151020000000E+005    0.624216506432E-002
    0.151520000000E+005    0.628252159217E-002
    0.152020000000E+005    0.632282935427E-002
    0.152520000000E+005    0.636308729867E-002
    0.153020000000E+005    0.640329441559E-002
    0.153520000000E+005    0.644344973746E-002
    0.154020000000E+005    0.648355233914E-002
    0.154520000000E+005    0.652360133825E-002
    0.155020000000E+005    0.656359589537E-002
    0.155520000000E+005    0.660353521419E-002
    0.156020000000E+005    0.664341854133E-002
    0.156520000000E+005    0.668324516620E-002
    0.157020000000E+005    0.672301442078E-002
    0.157520000000E+005    0.676272567961E-002
    0.158020000000E+005    0.680237835988E-002
    0.158520000000E+005    0.684197192177E-002
    0.159020000000E+005    0.688150586871E-002
    0.159520000000E+005    0.692097974758E-002
    0.160020000000E+005    0.696039314875E-002
    0.160520000000E+005    0.699974570592E-002
    0.161020000000E+005    0.703903709597E-002
    0.161520000000E+005    0.707826703881E-002
    0.162020000000E+005    0.711743529747E-002
    0.162520000000E+005    0.715654167828E-002
    0.163020000000E+005    0.719558603120E-002
    0.163520000000E+005    0.723456825009E-002
    0.164020000000E+005    0.727348827284E-002
    0.164520000000E+005    0.731234608134E-002
    0.165020000000E+005    0.735114170134E-002
    0.165520000000E+005    0.738987520230E-002
    0.166020000000E+005    0.742854669732E-002
    0.166520000000E+005    0.746715634329E-002
    0.167020000000E+005    0.750570434113E-002
    0.167520000000E+005    0.754419093608E-002
    0.168020000000E+005    0.758261641790E-002
    0.168520000000E+005    0.762098112097E-002
    0.169020000000E+005    0.765928542415E-002
    0.169520000000E+005    0.769752975061E-002
    0.170020000000E+005    0.773571456770E-002
    0.170520000000E+005    0.777384038692E-002
    0.171020000000E+005    0.781190776409E-002
    0.171520000000E+005    0.784991729954E-002
    0.172020000000E+005    0.788786963836E-002
    0.172520000000E+005    0.792576547046E-002
    0.173020000000E+005    0.796360553054E-002
    0.173520000000E+005    0.800139059783E-002
    0.174020000000E+005    0.803912149591E-002
    0.174520000000E+005    0.807679909248E-002
    0.175020000000E+005    0.811442429934E-002
    0.175520000000E+005    0.815199807248E-002
    0.176020000000E+005    0.818952141218E-002
    0.176520000000E+005    0.822699536305E-002
    0.177020000000E+005    0.826442101396E-002
    0.177520000000E+005    0.830179949779E-002
    0.178020000000E+005    0.833913199100E-002
    0.178520000000E+005    0.837641971332E-002
    0.179020000000E+005    0.841366392745E-002
    0.179520000000E+005    0.845086593888E-002
    0.180020000000E+005    0.848802709582E-002
    0.180520000000E+005    0.852514878911E-002
    0.181020000000E+005    0.856223245202E-002
    0.181520000000E+005    0.859927955986E-002
    0.182020000000E+005    0.863629162949E-002
    0.182520000000E+005    0.867327021868E-002
    0.183020000000E+005    0.871021692556E-002
    0.183520000000E+005    0.874713338815E-002
    0.184020000000E+005    0.878402128397E-002
    0.184520000000E+005    0.882088232971E-002
    0.185020000000E+005    0.885771828081E-002
    0.185520000000E+005    0.889453093092E-002
    0.186020000000E+005    0.893132211120E-002
    0.186520000000E+005    0.896809368944E-002
    0.187020000000E+005    0.900484756921E-002
    0.187520000000E+005    0.904158568899E-002
    0.188020000000E+005    0.907831002145E-002
    0.188520000000E+005    0.911502257274E-002
    0.189020000000E+005    0.915172538187E-002
    0.189520000000E+005    0.918842051985E-002
    0.190020000000E+005    0.922511008881E-002
    0.190520000000E+005    0.926179622086E-002
    0.191020000000E+005    0.929848107690E-002
    0.191520000000E+005    0.933516684544E-002
    0.192020000000E+005    0.937185574142E-002
    0.192520000000E+005    0.940855000518E-002
    0.193020000000E+005    0.944525190148E-002
    0.193520000000E+005    0.948196371837E-002
    0.194020000000E+005    0.951868776609E-002
    0.194520000000E+005    0.955542637568E-002
    0.195020000000E+005    0.959218189754E-002
    0.195520000000E+005    0.962895669987E-002
    0.196020000000E+005    0.966575316720E-002
    0.196520000000E+005    0.970257369899E-002
    0.197020000000E+005    0.973942070826E-002
    0.197520000000E+005    0.977629662029E-002
    0.198020000000E+005    0.981320387123E-002
    0.198520000000E+005    0.985014490655E-002
    0.199020000000E+005    0.988712217944E-002
    0.199520000000E+005    0.992413814900E-002
    0.200020000000E+005    0.996119527850E-002
    0.200520000000E+005    0.999829603372E-002
    0.201020000000E+005    0.100354428813E-001
    0.201520000000E+005    0.100726382873E-001
    0.202020000000E+005    0.101098847154E-001
    0.202520000000E+005    0.101471846259E-001
    0.203020000000E+005    0.101845404731E-001
    0.203520000000E+005    0.102219547042E-001
    0.204020000000E+005    0.102594297573E-001
    0.204520000000E+005    0.102969680592E-001
    0.205020000000E+005    0.103345720240E-001
    0.205520000000E+005    0.103722440513E-001
    0.206020000000E+005    0.104099865250E-001
    0.206520000000E+005    0.104478018112E-001
    0.207020000000E+005    0.104856922566E-001
    0.207520000000E+005    0.105236601873E-001
    0.208020000000E+005    0.105617079065E-001
    0.208520000000E+005    0.105998376926E-001
    0.209020000000E+005    0.106380517980E-001
    0.209520000000E+005    0.106763524471E-001
    0.210020000000E+005    0.107147418350E-001
    0.210520000000E+005    0.107532221261E-001
    0.211020000000E+005    0.107917954524E-001
