TITLE = "0D Field KU"
VARIABLES = N ,"KU_Ha10Rem10Re10000"
ZONE DATAPACKING = POINT
    0.200000000000E+001    0.560151387005E-043
    0.520000000000E+002    0.621478454359E-039
    0.102000000000E+003    0.245093399137E-032
    0.152000000000E+003    0.110578750480E-028
    0.202000000000E+003    0.331808676031E-026
    0.252000000000E+003    0.225091381437E-024
    0.302000000000E+003    0.594041984889E-023
    0.352000000000E+003    0.823153594883E-022
    0.402000000000E+003    0.719118688754E-021
    0.452000000000E+003    0.445932674663E-020
    0.502000000000E+003    0.212724257249E-019
    0.552000000000E+003    0.826099043936E-019
    0.602000000000E+003    0.272124717945E-018
    0.652000000000E+003    0.784026642009E-018
    0.702000000000E+003    0.202235139767E-017
    0.752000000000E+003    0.475562951485E-017
    0.802000000000E+003    0.103413894561E-016
    0.852000000000E+003    0.210336957067E-016
    0.902000000000E+003    0.403847841510E-016
    0.952000000000E+003    0.737491885222E-016
    0.100200000000E+004    0.128895903887E-015
    0.105200000000E+004    0.216731377707E-015
    0.110200000000E+004    0.352133647324E-015
    0.115200000000E+004    0.554895831087E-015
    0.120200000000E+004    0.850775366726E-015
    0.125200000000E+004    0.127264380455E-014
    0.130200000000E+004    0.186173065253E-014
    0.135200000000E+004    0.266895382370E-014
    0.140200000000E+004    0.375632867964E-014
    0.145200000000E+004    0.519844746194E-014
    0.150200000000E+004    0.708402100842E-014
    0.155200000000E+004    0.951747496901E-014
    0.160200000000E+004    0.126205930624E-013
    0.165200000000E+004    0.165342000489E-013
    0.170200000000E+004    0.214198771029E-013
    0.175200000000E+004    0.274617024012E-013
    0.180200000000E+004    0.348680101288E-013
    0.185200000000E+004    0.438731617065E-013
    0.190200000000E+004    0.547393237892E-013
    0.195200000000E+004    0.677582484039E-013
    0.200200000000E+004    0.832530512969E-013
    0.205200000000E+004    0.101579984880E-012
    0.210200000000E+004    0.123130202052E-012
    0.215200000000E+004    0.148331507008E-012
    0.220200000000E+004    0.177650089299E-012
    0.225200000000E+004    0.211592237926E-012
    0.230200000000E+004    0.250706032940E-012
    0.235200000000E+004    0.295583012857E-012
    0.240200000000E+004    0.346859816860E-012
    0.245200000000E+004    0.405219801142E-012
    0.250200000000E+004    0.471394628442E-012
    0.255200000000E+004    0.546165829221E-012
    0.260200000000E+004    0.630366332531E-012
    0.265200000000E+004    0.724881964868E-012
    0.270200000000E+004    0.830652915888E-012
    0.275200000000E+004    0.948675170702E-012
    0.280200000000E+004    0.108000190922E-011
    0.285200000000E+004    0.122574487345E-011
    0.290200000000E+004    0.138707570363E-011
    0.295200000000E+004    0.156522724303E-011
    0.300200000000E+004    0.176149481046E-011
    0.305200000000E+004    0.197723743939E-011
    0.310200000000E+004    0.221387908264E-011
    0.315200000000E+004    0.247290978282E-011
    0.320200000000E+004    0.275588680936E-011
    0.325200000000E+004    0.306443576396E-011
    0.330200000000E+004    0.340025165589E-011
    0.335200000000E+004    0.376509994849E-011
    0.340200000000E+004    0.416081757661E-011
    0.345200000000E+004    0.458931393372E-011
    0.350200000000E+004    0.505257182790E-011
    0.355200000000E+004    0.555264840612E-011
    0.360200000000E+004    0.609167604781E-011
    0.365200000000E+004    0.667186322924E-011
    0.370200000000E+004    0.729549536109E-011
    0.375200000000E+004    0.796493560104E-011
    0.380200000000E+004    0.868262564198E-011
    0.385200000000E+004    0.945108647519E-011
    0.390200000000E+004    0.102729191271E-010
    0.395200000000E+004    0.111508053683E-010
    0.400200000000E+004    0.120875083960E-010
    0.405200000000E+004    0.130858734894E-010
    0.410200000000E+004    0.141488286425E-010
    0.415200000000E+004    0.152793851752E-010
    0.420200000000E+004    0.164806383246E-010
    0.425200000000E+004    0.177557678169E-010
    0.430200000000E+004    0.191080384180E-010
    0.435200000000E+004    0.205408004608E-010
    0.440200000000E+004    0.220574903505E-010
    0.445200000000E+004    0.236616310452E-010
    0.450200000000E+004    0.253568325167E-010
    0.455200000000E+004    0.271467921933E-010
    0.460200000000E+004    0.290352953858E-010
    0.465200000000E+004    0.310262156989E-010
    0.470200000000E+004    0.331235154264E-010
    0.475200000000E+004    0.353312459290E-010
    0.480200000000E+004    0.376535479916E-010
    0.485200000000E+004    0.400946521616E-010
    0.490200000000E+004    0.426588790685E-010
    0.495200000000E+004    0.453506397264E-010
    0.500200000000E+004    0.481744358250E-010
    0.505200000000E+004    0.511348600067E-010
    0.510200000000E+004    0.542365961346E-010
    0.515200000000E+004    0.574844195451E-010
    0.520200000000E+004    0.608831972863E-010
    0.525200000000E+004    0.644378883395E-010
    0.530200000000E+004    0.681535438232E-010
    0.535200000000E+004    0.720353071837E-010
    0.540200000000E+004    0.760884143730E-010
    0.545200000000E+004    0.803181940177E-010
    0.550200000000E+004    0.847300675796E-010
    0.555200000000E+004    0.893295495075E-010
    0.560200000000E+004    0.941222473774E-010
    0.565200000000E+004    0.991138620192E-010
    0.570200000000E+004    0.104310187629E-009
    0.575200000000E+004    0.109717111867E-009
    0.580200000000E+004    0.115340615946E-009
    0.585200000000E+004    0.121186774710E-009
    0.590200000000E+004    0.127261756709E-009
    0.595200000000E+004    0.133571824263E-009
    0.600200000000E+004    0.140123333528E-009
    0.605200000000E+004    0.146922734541E-009
    0.610200000000E+004    0.153976571260E-009
    0.615200000000E+004    0.161291481590E-009
    0.620200000000E+004    0.168874197395E-009
    0.625200000000E+004    0.176731544507E-009
    0.630200000000E+004    0.184870442730E-009
    0.635200000000E+004    0.193297905833E-009
    0.640200000000E+004    0.202021041550E-009
    0.645200000000E+004    0.211047051562E-009
    0.650200000000E+004    0.220383231479E-009
    0.655200000000E+004    0.230036970808E-009
    0.660200000000E+004    0.240015752906E-009
    0.665200000000E+004    0.250327154930E-009
    0.670200000000E+004    0.260978847782E-009
    0.675200000000E+004    0.271978596051E-009
    0.680200000000E+004    0.283334257951E-009
    0.685200000000E+004    0.295053785257E-009
    0.690200000000E+004    0.307145223235E-009
    0.695200000000E+004    0.319616710565E-009
    0.700200000000E+004    0.332476479250E-009
    0.705200000000E+004    0.345732854518E-009
    0.710200000000E+004    0.359394254721E-009
    0.715200000000E+004    0.373469191230E-009
    0.720200000000E+004    0.387966268326E-009
    0.725200000000E+004    0.402894183100E-009
    0.730200000000E+004    0.418261725337E-009
    0.735200000000E+004    0.434077777404E-009
    0.740200000000E+004    0.450351314121E-009
    0.745200000000E+004    0.467091402632E-009
    0.750200000000E+004    0.484307202264E-009
    0.755200000000E+004    0.502007964383E-009
    0.760200000000E+004    0.520203032253E-009
    0.765200000000E+004    0.538901840895E-009
    0.770200000000E+004    0.558113916941E-009
    0.775200000000E+004    0.577848878491E-009
    0.780200000000E+004    0.598116434958E-009
    0.785200000000E+004    0.618926386907E-009
    0.790200000000E+004    0.640288625889E-009
    0.795200000000E+004    0.662213134269E-009
    0.800200000000E+004    0.684709985049E-009
    0.805200000000E+004    0.707789341704E-009
    0.810200000000E+004    0.731461458004E-009
    0.815200000000E+004    0.755736677848E-009
    0.820200000000E+004    0.780625435086E-009
    0.825200000000E+004    0.806138253339E-009
    0.830200000000E+004    0.832285745807E-009
    0.835200000000E+004    0.859078615078E-009
    0.840200000000E+004    0.886527652928E-009
    0.845200000000E+004    0.914643740129E-009
    0.850200000000E+004    0.943437846251E-009
    0.855200000000E+004    0.972921029475E-009
    0.860200000000E+004    0.100310443640E-008
    0.865200000000E+004    0.103399930182E-008
    0.870200000000E+004    0.106561694858E-008
    0.875200000000E+004    0.109796878729E-008
    0.880200000000E+004    0.113106631615E-008
    0.885200000000E+004    0.116492112076E-008
    0.890200000000E+004    0.119954487384E-008
    0.895200000000E+004    0.123494933509E-008
    0.900200000000E+004    0.127114635092E-008
    0.905200000000E+004    0.130814785430E-008
    0.910200000000E+004    0.134596586447E-008
    0.915200000000E+004    0.138461248681E-008
    0.920200000000E+004    0.142409991251E-008
    0.925200000000E+004    0.146444041843E-008
    0.930200000000E+004    0.150564636681E-008
    0.935200000000E+004    0.154773020508E-008
    0.940200000000E+004    0.159070446563E-008
    0.945200000000E+004    0.163458176556E-008
    0.950200000000E+004    0.167937480651E-008
    0.955200000000E+004    0.172509637437E-008
    0.960200000000E+004    0.177175933910E-008
    0.965200000000E+004    0.181937665444E-008
    0.970200000000E+004    0.186796135770E-008
    0.975200000000E+004    0.191752656951E-008
    0.980200000000E+004    0.196808549360E-008
    0.985200000000E+004    0.201965141655E-008
    0.990200000000E+004    0.207223770758E-008
    0.995200000000E+004    0.212585781829E-008
    0.100020000000E+005    0.218052528242E-008
    0.100520000000E+005    0.223625371565E-008
    0.101020000000E+005    0.229305681528E-008
    0.101520000000E+005    0.235094836002E-008
    0.102020000000E+005    0.240994220978E-008
    0.102520000000E+005    0.247005230535E-008
    0.103020000000E+005    0.253129266824E-008
    0.103520000000E+005    0.259367740039E-008
    0.104020000000E+005    0.265722068396E-008
    0.104520000000E+005    0.272193678104E-008
    0.105020000000E+005    0.278784003345E-008
    0.105520000000E+005    0.285494486244E-008
    0.106020000000E+005    0.292326576844E-008
    0.106520000000E+005    0.299281733086E-008
    0.107020000000E+005    0.306361420780E-008
    0.107520000000E+005    0.313567113582E-008
    0.108020000000E+005    0.320900292971E-008
    0.108520000000E+005    0.328362448222E-008
    0.109020000000E+005    0.335955076381E-008
    0.109520000000E+005    0.343679682239E-008
    0.110020000000E+005    0.351537778308E-008
    0.110520000000E+005    0.359530884792E-008
    0.111020000000E+005    0.367660529568E-008
    0.111520000000E+005    0.375928248156E-008
    0.112020000000E+005    0.384335583696E-008
    0.112520000000E+005    0.392884086926E-008
    0.113020000000E+005    0.401575316152E-008
    0.113520000000E+005    0.410410837223E-008
    0.114020000000E+005    0.419392223508E-008
    0.114520000000E+005    0.428521055869E-008
    0.115020000000E+005    0.437798922633E-008
    0.115520000000E+005    0.447227419570E-008
    0.116020000000E+005    0.456808149869E-008
    0.116520000000E+005    0.466542724111E-008
    0.117020000000E+005    0.476432760243E-008
    0.117520000000E+005    0.486479883555E-008
    0.118020000000E+005    0.496685726652E-008
    0.118520000000E+005    0.507051929430E-008
    0.119020000000E+005    0.517580139047E-008
    0.119520000000E+005    0.528272009902E-008
    0.120020000000E+005    0.539129203606E-008
    0.120520000000E+005    0.550153388961E-008
    0.121020000000E+005    0.561346241933E-008
    0.121520000000E+005    0.572709445627E-008
    0.122020000000E+005    0.584244690259E-008
    0.122520000000E+005    0.595953673135E-008
    0.123020000000E+005    0.607838098620E-008
    0.123520000000E+005    0.619899678116E-008
    0.124020000000E+005    0.632140130034E-008
    0.124520000000E+005    0.644561179773E-008
    0.125020000000E+005    0.657164559693E-008
    0.125520000000E+005    0.669952009089E-008
    0.126020000000E+005    0.682925274170E-008
    0.126520000000E+005    0.696086108026E-008
    0.127020000000E+005    0.709436270608E-008
    0.127520000000E+005    0.722977528699E-008
    0.128020000000E+005    0.736711655892E-008
    0.128520000000E+005    0.750640432564E-008
    0.129020000000E+005    0.764765645849E-008
    0.129520000000E+005    0.779089089619E-008
    0.130020000000E+005    0.793612564452E-008
    0.130520000000E+005    0.808337877610E-008
    0.131020000000E+005    0.823266843016E-008
    0.131520000000E+005    0.838401281223E-008
    0.132020000000E+005    0.853743019392E-008
    0.132520000000E+005    0.869293891267E-008
    0.133020000000E+005    0.885055737150E-008
    0.133520000000E+005    0.901030403878E-008
    0.134020000000E+005    0.917219744795E-008
    0.134520000000E+005    0.933625619733E-008
    0.135020000000E+005    0.950249894979E-008
    0.135520000000E+005    0.967094443254E-008
    0.136020000000E+005    0.984161143691E-008
    0.136520000000E+005    0.100145188180E-007
    0.137020000000E+005    0.101896854946E-007
    0.137520000000E+005    0.103671304487E-007
    0.138020000000E+005    0.105468727256E-007
    0.138520000000E+005    0.107289314333E-007
    0.139020000000E+005    0.109133257424E-007
    0.139520000000E+005    0.111000748860E-007
    0.140020000000E+005    0.112891981593E-007
    0.140520000000E+005    0.114807149193E-007
    0.141020000000E+005    0.116746445845E-007
    0.141520000000E+005    0.118710066351E-007
    0.142020000000E+005    0.120698206121E-007
    0.142520000000E+005    0.122711061176E-007
    0.143020000000E+005    0.124748828145E-007
    0.143520000000E+005    0.126811704257E-007
    0.144020000000E+005    0.128899887347E-007
    0.144520000000E+005    0.131013575846E-007
    0.145020000000E+005    0.133152968784E-007
    0.145520000000E+005    0.135318265785E-007
    0.146020000000E+005    0.137509667063E-007
    0.146520000000E+005    0.139727373424E-007
    0.147020000000E+005    0.141971586261E-007
    0.147520000000E+005    0.144242507551E-007
    0.148020000000E+005    0.146540339854E-007
    0.148520000000E+005    0.148865286311E-007
    0.149020000000E+005    0.151217550638E-007
    0.149520000000E+005    0.153597337128E-007
    0.150020000000E+005    0.156004850648E-007
    0.150520000000E+005    0.158440296633E-007
    0.151020000000E+005    0.160903881089E-007
    0.151520000000E+005    0.163395810585E-007
    0.152020000000E+005    0.165916292256E-007
    0.152520000000E+005    0.168465533797E-007
    0.153020000000E+005    0.171043743461E-007
    0.153520000000E+005    0.173651130060E-007
    0.154020000000E+005    0.176287902956E-007
    0.154520000000E+005    0.178954272067E-007
    0.155020000000E+005    0.181650447858E-007
    0.155520000000E+005    0.184376641341E-007
    0.156020000000E+005    0.187133064074E-007
    0.156520000000E+005    0.189919928158E-007
    0.157020000000E+005    0.192737446231E-007
    0.157520000000E+005    0.195585831473E-007
    0.158020000000E+005    0.198465297597E-007
    0.158520000000E+005    0.201376058849E-007
    0.159020000000E+005    0.204318330007E-007
    0.159520000000E+005    0.207292326378E-007
    0.160020000000E+005    0.210298263794E-007
    0.160520000000E+005    0.213336358612E-007
    0.161020000000E+005    0.216406827711E-007
    0.161520000000E+005    0.219509888490E-007
    0.162020000000E+005    0.222645758865E-007
    0.162520000000E+005    0.225814657265E-007
    0.163020000000E+005    0.229016802634E-007
    0.163520000000E+005    0.232252414427E-007
    0.164020000000E+005    0.235521712605E-007
    0.164520000000E+005    0.238824917637E-007
    0.165020000000E+005    0.242162250495E-007
    0.165520000000E+005    0.245533932653E-007
    0.166020000000E+005    0.248940186085E-007
    0.166520000000E+005    0.252381233260E-007
    0.167020000000E+005    0.255857297144E-007
    0.167520000000E+005    0.259368601194E-007
    0.168020000000E+005    0.262915369359E-007
    0.168520000000E+005    0.266497826076E-007
    0.169020000000E+005    0.270116196268E-007
    0.169520000000E+005    0.273770705341E-007
    0.170020000000E+005    0.277461579184E-007
    0.170520000000E+005    0.281189044166E-007
    0.171020000000E+005    0.284953327130E-007
    0.171520000000E+005    0.288754655399E-007
    0.172020000000E+005    0.292593256766E-007
    0.172520000000E+005    0.296469359495E-007
    0.173020000000E+005    0.300383192319E-007
    0.173520000000E+005    0.304334984439E-007
    0.174020000000E+005    0.308324965518E-007
    0.174520000000E+005    0.312353365684E-007
    0.175020000000E+005    0.316420415522E-007
    0.175520000000E+005    0.320526346078E-007
    0.176020000000E+005    0.324671388851E-007
    0.176520000000E+005    0.328855775796E-007
    0.177020000000E+005    0.333079739320E-007
    0.177520000000E+005    0.337343512276E-007
    0.178020000000E+005    0.341647327969E-007
    0.178520000000E+005    0.345991420146E-007
    0.179020000000E+005    0.350376022999E-007
    0.179520000000E+005    0.354801371160E-007
    0.180020000000E+005    0.359267699700E-007
    0.180520000000E+005    0.363775244128E-007
    0.181020000000E+005    0.368324240387E-007
    0.181520000000E+005    0.372914924854E-007
    0.182020000000E+005    0.377547534334E-007
    0.182520000000E+005    0.382222306064E-007
    0.183020000000E+005    0.386939477705E-007
    0.183520000000E+005    0.391699287345E-007
    0.184020000000E+005    0.396501973492E-007
    0.184520000000E+005    0.401347775075E-007
    0.185020000000E+005    0.406236931443E-007
    0.185520000000E+005    0.411169682360E-007
    0.186020000000E+005    0.416146268005E-007
    0.186520000000E+005    0.421166928969E-007
    0.187020000000E+005    0.426231906253E-007
    0.187520000000E+005    0.431341441266E-007
    0.188020000000E+005    0.436495775826E-007
    0.188520000000E+005    0.441695152152E-007
    0.189020000000E+005    0.446939812865E-007
    0.189520000000E+005    0.452230000990E-007
    0.190020000000E+005    0.457565959948E-007
    0.190520000000E+005    0.462947933555E-007
    0.191020000000E+005    0.468376166023E-007
    0.191520000000E+005    0.473850901957E-007
    0.192020000000E+005    0.479372386352E-007
    0.192520000000E+005    0.484940864589E-007
    0.193020000000E+005    0.490556582439E-007
    0.193520000000E+005    0.496219786054E-007
    0.194020000000E+005    0.501930721973E-007
    0.194520000000E+005    0.507689637111E-007
    0.195020000000E+005    0.513496778765E-007
    0.195520000000E+005    0.519352394607E-007
    0.196020000000E+005    0.525256732684E-007
    0.196520000000E+005    0.531210041417E-007
    0.197020000000E+005    0.537212569596E-007
    0.197520000000E+005    0.543264566383E-007
    0.198020000000E+005    0.549366281303E-007
    0.198520000000E+005    0.555517964249E-007
    0.199020000000E+005    0.561719865478E-007
    0.199520000000E+005    0.567972235607E-007
    0.200020000000E+005    0.574275325613E-007
    0.200520000000E+005    0.580629386829E-007
    0.201020000000E+005    0.587034670947E-007
    0.201520000000E+005    0.593491430010E-007
    0.202020000000E+005    0.599999916415E-007
    0.202520000000E+005    0.606560382907E-007
    0.203020000000E+005    0.613173082581E-007
    0.203520000000E+005    0.619838268879E-007
    0.204020000000E+005    0.626556195585E-007
    0.204520000000E+005    0.633327116828E-007
    0.205020000000E+005    0.640151287077E-007
    0.205520000000E+005    0.647028961140E-007
    0.206020000000E+005    0.653960394163E-007
    0.206520000000E+005    0.660945841626E-007
    0.207020000000E+005    0.667985559343E-007
    0.207520000000E+005    0.675079803461E-007
    0.208020000000E+005    0.682228830455E-007
    0.208520000000E+005    0.689432897129E-007
    0.209020000000E+005    0.696692260614E-007
    0.209520000000E+005    0.704007178364E-007
    0.210020000000E+005    0.711377908156E-007
    0.210520000000E+005    0.718804708089E-007
    0.211020000000E+005    0.726287836581E-007
